# dimensionless total [l(l+1)/2pi] C_l's
# for l=2 to 3000, i.e. number of multipoles equal to 2999
#
# -> if you prefer output in CAMB/HealPix/LensPix units/order, set 'format' to 'camb' in input file
# -> if you don't want to see such a header, set 'headers' to 'no' in input file
# -> for CMB lensing (phi), these are C_l^phi-phi for the lensing potential.
#    Remember the conversion factors:
#    C_l^dd (deflection) = l(l+1) C_l^phi-phi
#    C_l^gg (shear/convergence) = 1/4 (l(l+1))^2 C_l^phi-phi
#
# 1:l     2:TT                     3:EE                     4:TE                     5:BB                     6:phiphi                 7:TPhi                   8:Ephi               
    2       1.374836577754e-10       4.157505634866e-15       3.535752809421e-13       0.000000000000e+00       8.407238225724e-09       4.505571892557e-10      -1.842175367303e-12 
    3       1.301647209797e-10       5.318810290156e-15       3.960229204080e-13       0.000000000000e+00       5.105317095163e-09       3.181306780070e-10      -1.395017180508e-12 
    4       1.232495905285e-10       4.595916444420e-15       3.699154874912e-13       0.000000000000e+00       3.524705800191e-09       2.403420951163e-10      -9.127599419853e-13 
    5       1.180746461392e-10       3.062861534207e-15       3.147612148249e-13       0.000000000000e+00       2.618840030886e-09       1.895336871813e-10      -5.071102554820e-13 
    6       1.145336584662e-10       1.710773028549e-15       2.533076215958e-13       0.000000000000e+00       2.038298964214e-09       1.539900551844e-10      -2.085431867061e-13 
    7       1.122350056373e-10       9.234682885021e-16       1.987562129165e-13       0.000000000000e+00       1.639312977357e-09       1.279303952605e-10      -1.836703444806e-14 
    8       1.109050223532e-10       5.951630403812e-16       1.568640404645e-13       0.000000000000e+00       1.351119897757e-09       1.081959413679e-10       7.845835467058e-14 
    9       1.102993462802e-10       4.770922726796e-16       1.288748511327e-13       0.000000000000e+00       1.134999875919e-09       9.290896962875e-11       1.053327994786e-13 
   10       1.101903490018e-10       4.061205819825e-16       1.134481270926e-13       0.000000000000e+00       9.681093420508e-10       8.081629362768e-11       8.815515980001e-14 
   11       1.105219358437e-10       3.412332546248e-16       1.078880678264e-13       0.000000000000e+00       8.315055471683e-10       7.184399698870e-11       5.106263707874e-14 
   12       1.111436728520e-10       2.976523164020e-16       1.091426318237e-13       0.000000000000e+00       7.263957529763e-10       6.351798280210e-11       1.157922096571e-14 
   13       1.120068123016e-10       2.859022690090e-16       1.145285211021e-13       0.000000000000e+00       6.401196716345e-10       5.676204907509e-11      -1.834475972111e-14 
   14       1.130642446674e-10       2.979695568185e-16       1.220103276158e-13       0.000000000000e+00       5.683493176828e-10       5.087753020670e-11      -3.453949490342e-14 
   15       1.143038791023e-10       3.224220678904e-16       1.302850788635e-13       0.000000000000e+00       5.079505897403e-10       4.592986183016e-11      -3.728130406615e-14 
   16       1.156514896446e-10       3.570322278939e-16       1.387200426278e-13       0.000000000000e+00       4.566050593500e-10       4.166746101093e-11      -3.056112449583e-14 
   17       1.171342359962e-10       4.072664729471e-16       1.471237405275e-13       0.000000000000e+00       4.125652147208e-10       3.794921753458e-11      -1.957597351194e-14 
   18       1.186894531687e-10       4.783900223971e-16       1.556913468355e-13       0.000000000000e+00       3.743516117809e-10       3.470854097926e-11      -9.188597427478e-15 
   19       1.203288434083e-10       5.707258798207e-16       1.646432305853e-13       0.000000000000e+00       3.413412017656e-10       3.189837891412e-11      -1.955924291177e-15 
   20       1.220454285233e-10       6.823236163252e-16       1.741485097797e-13       0.000000000000e+00       3.122751897359e-10       2.940510211914e-11       4.743659067559e-16 
   21       1.238404065239e-10       8.125246518452e-16       1.841663501230e-13       0.000000000000e+00       2.866943282828e-10       2.718250588146e-11      -1.290803533643e-15 
   22       1.256875299609e-10       9.608099620499e-16       1.945073312766e-13       0.000000000000e+00       2.639799168660e-10       2.517375786002e-11      -5.475756187356e-15 
   23       1.275932425670e-10       1.127410313579e-15       2.048340056484e-13       0.000000000000e+00       2.438265200639e-10       2.337083227155e-11      -1.034975966819e-14 
   24       1.295519488360e-10       1.312637797345e-15       2.147180187638e-13       0.000000000000e+00       2.257729040867e-10       2.175810832808e-11      -1.409386142792e-14 
   25       1.315584666191e-10       1.516750012638e-15       2.238624239933e-13       0.000000000000e+00       2.095732034923e-10       2.031392118463e-11      -1.594291098737e-14 
   26       1.335951127626e-10       1.740130823720e-15       2.320227260185e-13       0.000000000000e+00       1.949093388977e-10       1.900205592402e-11      -1.561239467916e-14 
   27       1.356714922209e-10       1.984359606468e-15       2.391315318722e-13       0.000000000000e+00       1.817046691883e-10       1.781333164076e-11      -1.360584608722e-14 
   28       1.377902986301e-10       2.251603432590e-15       2.451996136845e-13       0.000000000000e+00       1.697985583520e-10       1.673248412814e-11      -1.089553756487e-14 
   29       1.399406207436e-10       2.544066912540e-15       2.502682876109e-13       0.000000000000e+00       1.589011261026e-10       1.573346995241e-11      -8.565157938454e-15 
   30       1.421290880351e-10       2.862922310655e-15       2.543853704067e-13       0.000000000000e+00       1.489518859188e-10       1.481531084766e-11      -6.987361983231e-15 
   31       1.443574476871e-10       3.208949194784e-15       2.576241837803e-13       0.000000000000e+00       1.398766198795e-10       1.397820200651e-11      -6.330864903820e-15 
   32       1.466176770787e-10       3.582859444905e-15       2.600491695720e-13       0.000000000000e+00       1.315312988170e-10       1.321539135165e-11      -6.675659386218e-15 
   33       1.489092668196e-10       3.985527156306e-15       2.615654445803e-13       0.000000000000e+00       1.238702059304e-10       1.252032334082e-11      -7.686332563902e-15 
   34       1.512258608619e-10       4.417831025241e-15       2.620120197171e-13       0.000000000000e+00       1.168252359849e-10       1.188070014924e-11      -8.804327915302e-15 
   35       1.535561645378e-10       4.880611071680e-15       2.612224719193e-13       0.000000000000e+00       1.102912252863e-10       1.128079455087e-11      -9.466873327801e-15 
   36       1.559070995387e-10       5.374744288793e-15       2.591075156027e-13       0.000000000000e+00       1.042510608273e-10       1.071856873445e-11      -9.608395612710e-15 
   37       1.582871898146e-10       5.901088458813e-15       2.555995694187e-13       0.000000000000e+00       9.868568059641e-11       1.019368631989e-11      -9.329138755154e-15 
   38       1.606995945958e-10       6.460457948910e-15       2.506307999781e-13       0.000000000000e+00       9.353625465559e-11       9.702585057157e-12      -8.765800596370e-15 
   39       1.631432216678e-10       7.053611910306e-15       2.441477480078e-13       0.000000000000e+00       8.872536919585e-11       9.240207428497e-12      -8.075306972634e-15 
   40       1.656181128725e-10       7.681221973993e-15       2.361613699706e-13       0.000000000000e+00       8.423818929672e-11       8.806651314735e-12      -7.372907835454e-15 
   41       1.681208012395e-10       8.343888074932e-15       2.267139475396e-13       0.000000000000e+00       8.006283124908e-11       8.402271596254e-12      -6.777495231699e-15 
   42       1.706421905479e-10       9.042142170517e-15       2.158669072660e-13       0.000000000000e+00       7.616614783620e-11       8.025686685422e-12      -6.429951815215e-15 
   43       1.731719980492e-10       9.776486900775e-15       2.036742551339e-13       0.000000000000e+00       7.250596565525e-11       7.674458522965e-12      -6.450224253854e-15 
   44       1.757149761017e-10       1.054753532038e-14       1.900904743717e-13       0.000000000000e+00       6.907658827685e-11       7.347750126678e-12      -6.789563310860e-15 
   45       1.782788675652e-10       1.135590808536e-14       1.750356939237e-13       0.000000000000e+00       6.587447028810e-11       7.044237543289e-12      -7.334335877492e-15 
   46       1.808696783997e-10       1.220219342677e-14       1.584201447034e-13       0.000000000000e+00       6.288455647744e-11       6.761250279811e-12      -7.944713273059e-15 
   47       1.834914697116e-10       1.308694590469e-14       1.401434700630e-13       0.000000000000e+00       6.007938478347e-11       6.494670501616e-12      -8.453136063054e-15 
   48       1.861463541067e-10       1.401063744813e-14       1.201135433665e-13       0.000000000000e+00       5.742752906890e-11       6.240125867423e-12      -8.710107326690e-15 
   49       1.888349687566e-10       1.497349706217e-14       9.831080213433e-14       0.000000000000e+00       5.492383481970e-11       5.997200850358e-12      -8.740418973055e-15 
   50       1.915557783965e-10       1.597562379540e-14       7.474086421670e-14       0.000000000000e+00       5.256616528472e-11       5.766239347724e-12      -8.628326095747e-15 
   51       1.943046899952e-10       1.701702691900e-14       4.941690225040e-14       0.000000000000e+00       5.034639561376e-11       5.547120747055e-12      -8.474921360011e-15 
   52       1.970748552252e-10       1.809762224636e-14       2.235994938938e-14       0.000000000000e+00       4.824999232817e-11       5.339225126078e-12      -8.399014537682e-15 
   53       1.998593352685e-10       1.921731246208e-14      -6.411926009646e-15       0.000000000000e+00       4.626057002562e-11       5.141716443440e-12      -8.506637674612e-15 
   54       2.026603543949e-10       2.037626083116e-14      -3.692006810690e-14       0.000000000000e+00       4.437590511494e-11       4.954557708144e-12      -8.788330015913e-15 
   55       2.054820816094e-10       2.157468145772e-14      -6.919762528598e-14       0.000000000000e+00       4.259530697603e-11       4.777696202199e-12      -9.196973536666e-15 
   56       2.083279008269e-10       2.281276128168e-14      -1.032793968323e-13       0.000000000000e+00       4.091479409100e-11       4.610747355419e-12      -9.676429254835e-15 
   57       2.112003333564e-10       2.409065992080e-14      -1.392019939131e-13       0.000000000000e+00       3.932688220379e-11       4.452973278347e-12      -1.016110127909e-14 
   58       2.141009603861e-10       2.540850951256e-14      -1.770040005572e-13       0.000000000000e+00       3.782037247976e-11       4.303261295157e-12      -1.057550085665e-14 
   59       2.170307418280e-10       2.676630570177e-14      -2.167148603708e-13       0.000000000000e+00       3.638343035281e-11       4.160426287093e-12      -1.085235154153e-14 
   60       2.199912353704e-10       2.816355139921e-14      -2.583181572952e-13       0.000000000000e+00       3.501413813739e-11       4.024248469963e-12      -1.099280470417e-14 
   61       2.229835240316e-10       2.959952986681e-14      -3.017800769026e-13       0.000000000000e+00       3.371202300467e-11       3.894639107762e-12      -1.101946222436e-14 
   62       2.260077819202e-10       3.107340252861e-14      -3.470597142138e-13       0.000000000000e+00       3.247488352336e-11       3.771327616114e-12      -1.095925353075e-14 
   63       2.290632101562e-10       3.258420512273e-14      -3.941088524998e-13       0.000000000000e+00       3.129868936803e-11       3.653851071812e-12      -1.084362816118e-14 
   64       2.321479727913e-10       3.413084385339e-14      -4.428717420833e-13       0.000000000000e+00       3.017748102744e-11       3.541543722357e-12      -1.070874832307e-14 
   65       2.352601089423e-10       3.571222066516e-14      -4.932970011169e-13       0.000000000000e+00       2.910501199924e-11       3.433722580549e-12      -1.058748128204e-14 
   66       2.384006376488e-10       3.732764854561e-14      -5.453767441874e-13       0.000000000000e+00       2.808030487703e-11       3.330313456271e-12      -1.048297290290e-14 
   67       2.415709979658e-10       3.897651755778e-14      -5.991153695448e-13       0.000000000000e+00       2.710309614260e-11       3.231339146482e-12      -1.038980512491e-14 
   68       2.447720946874e-10       4.065817324710e-14      -6.545182840175e-13       0.000000000000e+00       2.617214692157e-11       3.136730137133e-12      -1.030166616137e-14 
   69       2.480042615742e-10       4.237191640520e-14      -7.115920208897e-13       0.000000000000e+00       2.528519143269e-11       3.046319597603e-12      -1.021131368458e-14 
   70       2.512672245803e-10       4.411700283369e-14      -7.703443577797e-13       0.000000000000e+00       2.443888543696e-11       2.959838375132e-12      -1.011053801078e-14 
   71       2.545600650812e-10       4.589264310799e-14      -8.307844345172e-13       0.000000000000e+00       2.362875468689e-11       2.876909989259e-12      -9.990125285105e-15 
   72       2.578818077086e-10       4.769795899365e-14      -8.929146767046e-13       0.000000000000e+00       2.285034461455e-11       2.797151500341e-12      -9.842505272881e-15 
   73       2.612333962059e-10       4.953184353511e-14      -9.567045096849e-13       0.000000000000e+00       2.210303943934e-11       2.720509653813e-12      -9.670364942668e-15 
   74       2.646160321499e-10       5.139307355910e-14      -1.022111788503e-12       0.000000000000e+00       2.138688639055e-11       2.646980513374e-12      -9.479629427430e-15 
   75       2.680305618180e-10       5.328034943753e-14      -1.089090477130e-12       0.000000000000e+00       2.070143570744e-11       2.576506759589e-12      -9.276947975721e-15 
   76       2.714774536755e-10       5.519229386157e-14      -1.157590579255e-12       0.000000000000e+00       2.004571651400e-11       2.508975101550e-12      -9.069718429025e-15 
   77       2.749567758637e-10       5.712745061584e-14      -1.227558069082e-12       0.000000000000e+00       1.941821269370e-11       2.444213688518e-12      -8.866111699088e-15 
   78       2.784681736873e-10       5.908428335251e-14      -1.298934822115e-12       0.000000000000e+00       1.881683876424e-11       2.381989521583e-12      -8.675096245252e-15 
   79       2.820108471025e-10       6.106117436542e-14      -1.371658545960e-12       0.000000000000e+00       1.823891575226e-11       2.322005865313e-12      -8.506462551796e-15 
   80       2.855839920415e-10       6.305648000668e-14      -1.445667898831e-12       0.000000000000e+00       1.768183596159e-11       2.263976823869e-12      -8.368527701301e-15 
   81       2.891882621792e-10       6.506871071648e-14      -1.520919021044e-12       0.000000000000e+00       1.714524330686e-11       2.207871678924e-12      -8.260736159322e-15 
   82       2.928245211176e-10       6.709638016687e-14      -1.597371761586e-12       0.000000000000e+00       1.662918936152e-11       2.153708458543e-12      -8.179812664677e-15 
   83       2.964933873887e-10       6.913795122208e-14      -1.674984771843e-12       0.000000000000e+00       1.613346690324e-11       2.101479400112e-12      -8.121949802425e-15 
   84       3.001952205318e-10       7.119183576155e-14      -1.753715532458e-12       0.000000000000e+00       1.565759854592e-11       2.051149790968e-12      -8.082789520013e-15 
   85       3.039301071707e-10       7.325639450306e-14      -1.833520380195e-12       0.000000000000e+00       1.520082537178e-11       2.002656809024e-12      -8.057404643426e-15 
   86       3.076978470911e-10       7.532993682573e-14      -1.914354534802e-12       0.000000000000e+00       1.476209556333e-11       1.955908363390e-12      -8.040280393343e-15 
   87       3.114979393178e-10       7.741072059311e-14      -1.996172125870e-12       0.000000000000e+00       1.434005303545e-11       1.910781934997e-12      -8.025295901280e-15 
   88       3.153295681923e-10       7.949695197627e-14      -2.078926219695e-12       0.000000000000e+00       1.393302606741e-11       1.867123417224e-12      -8.005705725747e-15 
   89       3.191919157764e-10       8.158680936588e-14      -2.162567492690e-12       0.000000000000e+00       1.353942510584e-11       1.824785290734e-12      -7.975588667875e-15 
   90       3.230851855754e-10       8.367851979308e-14      -2.247039954564e-12       0.000000000000e+00       1.315903246832e-11       1.783750538066e-12      -7.934494970189e-15 
   91       3.270097144994e-10       8.577029422634e-14      -2.332284600617e-12       0.000000000000e+00       1.279189494911e-11       1.744026121594e-12      -7.883497448527e-15 
   92       3.309656519254e-10       8.786030473099e-14      -2.418240711963e-12       0.000000000000e+00       1.243792749326e-11       1.705604817580e-12      -7.823792537672e-15 
   93       3.349529506626e-10       8.994668465315e-14      -2.504845862113e-12       0.000000000000e+00       1.209690795864e-11       1.668464646078e-12      -7.756703789514e-15 
   94       3.389713579192e-10       9.202752880368e-14      -2.592035923565e-12       0.000000000000e+00       1.176847187780e-11       1.632568300832e-12      -7.683685371219e-15 
   95       3.430204062679e-10       9.410089364216e-14      -2.679745074387e-12       0.000000000000e+00       1.145210721996e-11       1.597862579175e-12      -7.606325563389e-15 
   96       3.470994046125e-10       9.616479746078e-14      -2.767905804798e-12       0.000000000000e+00       1.114714915293e-11       1.564277811933e-12      -7.526350258234e-15 
   97       3.512074291537e-10       9.821722056835e-14      -2.856448923762e-12       0.000000000000e+00       1.085277480501e-11       1.531727293326e-12      -7.445626457731e-15 
   98       3.553433143554e-10       1.002561054742e-13      -2.945303565567e-12       0.000000000000e+00       1.056799802699e-11       1.500106710866e-12      -7.366165771793e-15 
   99       3.595059431607e-10       1.022794039972e-13      -3.034398556995e-12       0.000000000000e+00       1.029189524621e-11       1.469319101823e-12      -7.289720834584e-15 
  100       3.636951840727e-10       1.042852258080e-13      -3.123666725561e-12       0.000000000000e+00       1.002433085329e-11       1.439354988327e-12      -7.216501766136e-15 
  101       3.679110706382e-10       1.062717113663e-13      -3.213041216569e-12       0.000000000000e+00       9.765325307399e-12       1.410222586442e-12      -7.146283561348e-15 
  102       3.721535087011e-10       1.082369876158e-13      -3.302454209757e-12       0.000000000000e+00       9.514830804193e-12       1.381923034825e-12      -7.078795534644e-15 
  103       3.764222709949e-10       1.101791687371e-13      -3.391836942376e-12       0.000000000000e+00       9.272728838815e-12       1.354450134034e-12      -7.013719883811e-15 
  104       3.807169917371e-10       1.120963569003e-13      -3.481119732262e-12       0.000000000000e+00       9.038827768976e-12       1.327790085848e-12      -6.950690253837e-15 
  105       3.850371612215e-10       1.139866430179e-13      -3.570232000917e-12       0.000000000000e+00       8.812860377998e-12       1.301921232576e-12      -6.889290300756e-15 
  106       3.893821204125e-10       1.158481074977e-13      -3.659102296586e-12       0.000000000000e+00       8.594481437866e-12       1.276813796373e-12      -6.829052255480e-15 
  107       3.937510555380e-10       1.176788209950e-13      -3.747658317334e-12       0.000000000000e+00       8.383265272288e-12       1.252429618552e-12      -6.769455487646e-15 
