# dimensionless total [l(l+1)/2pi] C_l's
# for l=2 to 3000, i.e. number of multipoles equal to 2999
#
# -> if you prefer output in CAMB/HealPix/LensPix units/order, set 'format' to 'camb' in input file
# -> if you don't want to see such a header, set 'headers' to 'no' in input file
# -> for CMB lensing (phi), these are C_l^phi-phi for the lensing potential.
#    Remember the conversion factors:
#    C_l^dd (deflection) = l(l+1) C_l^phi-phi
#    C_l^gg (shear/convergence) = 1/4 (l(l+1))^2 C_l^phi-phi
#
# 1:l     2:TT                     3:EE                     4:TE                     5:BB                     6:phiphi                 7:TPhi                   8:Ephi               
    2       1.572955215053e-10       4.181863564732e-15       3.936962479488e-13       0.000000000000e+00       8.255139785679e-09       5.425837090260e-10      -1.721529088295e-12 
    3       1.440227396567e-10       5.330597755953e-15       4.229864780004e-13       0.000000000000e+00       4.959977550284e-09       3.759956350402e-10      -1.314983229196e-12 
    4       1.336610900036e-10       4.555112738218e-15       3.862582590065e-13       0.000000000000e+00       3.412725178530e-09       2.804630711422e-10      -8.502551437219e-13 
    5       1.263572896922e-10       2.994666038733e-15       3.235911169303e-13       0.000000000000e+00       2.532724786490e-09       2.190226543196e-10      -4.559127540155e-13 
    6       1.213884607604e-10       1.655224541449e-15       2.573333426983e-13       0.000000000000e+00       1.970567125059e-09       1.764993588143e-10      -1.681406489620e-13 
    7       1.180955555611e-10       8.946319878484e-16       2.000879575663e-13       0.000000000000e+00       1.584754529734e-09       1.455976113413e-10       1.127534605330e-14 
    8       1.160380604539e-10       5.839463125823e-16       1.570341355528e-13       0.000000000000e+00       1.306226530479e-09       1.224000838277e-10       9.794795430269e-14 
    9       1.148691796242e-10       4.699526806055e-16       1.288767186147e-13       0.000000000000e+00       1.097377264901e-09       1.045501256546e-10       1.161691498739e-13 
   10       1.143803380036e-10       3.973564237899e-16       1.137174495036e-13       0.000000000000e+00       9.360839990737e-10       9.045404859777e-11       9.258505203652e-14 
   11       1.143461277206e-10       3.324479099436e-16       1.084854062167e-13       0.000000000000e+00       8.041950018640e-10       7.980276151145e-11       5.159064793093e-14 
   12       1.146687758816e-10       2.913767173848e-16       1.100083148493e-13       0.000000000000e+00       7.025271624881e-10       7.031068051832e-11       1.072814434742e-14 
   13       1.153149451309e-10       2.819185388374e-16       1.155571299567e-13       0.000000000000e+00       6.190554147554e-10       6.236507923265e-11      -1.922931397871e-14 
   14       1.162251075960e-10       2.943462752008e-16       1.230411995975e-13       0.000000000000e+00       5.496011025176e-10       5.583988508845e-11      -3.414042380737e-14 
   15       1.172784525354e-10       3.180262238284e-16       1.311700954771e-13       0.000000000000e+00       4.911382458555e-10       5.024903393959e-11      -3.561049079420e-14 
   16       1.184743812097e-10       3.523347603852e-16       1.394401164195e-13       0.000000000000e+00       4.414283191352e-10       4.529002971018e-11      -2.832038347362e-14 
   17       1.198439607610e-10       4.032146941388e-16       1.477557337092e-13       0.000000000000e+00       3.987837716230e-10       4.102549399394e-11      -1.748379514262e-14 
   18       1.213063833996e-10       4.751306917560e-16       1.563219819802e-13       0.000000000000e+00       3.617754872979e-10       3.736528143305e-11      -7.904545593570e-15 
   19       1.228645059173e-10       5.679443982662e-16       1.653559392064e-13       0.000000000000e+00       3.298017665611e-10       3.421160813020e-11      -1.891048237178e-15 
   20       1.245002534959e-10       6.794762482113e-16       1.750112518116e-13       0.000000000000e+00       3.016459447098e-10       3.140298899413e-11      -7.068719492446e-16 
   21       1.262140867222e-10       8.092803751242e-16       1.851908645599e-13       0.000000000000e+00       2.768642565934e-10       2.890713130644e-11      -3.473492400308e-15 
   22       1.279815126863e-10       9.571555587135e-16       1.956324902357e-13       0.000000000000e+00       2.548583823396e-10       2.669420129273e-11      -8.185278815973e-15 
   23       1.298110028626e-10       1.123074042824e-15       2.059747524239e-13       0.000000000000e+00       2.353329971456e-10       2.474097933808e-11      -1.305619902684e-14 
   24       1.316984648494e-10       1.306960556773e-15       2.157858350446e-13       0.000000000000e+00       2.178419237879e-10       2.299845187007e-11      -1.633366081170e-14 
   25       1.336404747188e-10       1.509254610835e-15       2.247830837691e-13       0.000000000000e+00       2.021472355308e-10       2.142707560585e-11      -1.754021460187e-14 
   26       1.356201768897e-10       1.730713213251e-15       2.327478750930e-13       0.000000000000e+00       1.879410419497e-10       1.997903224156e-11      -1.674850776407e-14 
   27       1.376457399239e-10       1.973046530742e-15       2.396435039789e-13       0.000000000000e+00       1.751491118916e-10       1.865473132035e-11      -1.453475219890e-14 
   28       1.397163839483e-10       2.238487010295e-15       2.455201684721e-13       0.000000000000e+00       1.636159045989e-10       1.745777860186e-11      -1.184448350033e-14 
   29       1.418166957609e-10       2.529290456665e-15       2.504598460845e-13       0.000000000000e+00       1.530607733562e-10       1.637853311355e-11      -9.717058541966e-15 
   30       1.439512512620e-10       2.846581307488e-15       2.545187451261e-13       0.000000000000e+00       1.434250626714e-10       1.540580623523e-11      -8.477791453603e-15 
   31       1.461199113835e-10       3.191040179262e-15       2.577663363322e-13       0.000000000000e+00       1.346368084998e-10       1.451690452739e-11      -8.233224502533e-15 
   32       1.483136314557e-10       3.563236062634e-15       2.602576208462e-13       0.000000000000e+00       1.265564742472e-10       1.368301888328e-11      -8.986870872900e-15 
   33       1.505375569334e-10       3.963815329142e-15       2.618775552766e-13       0.000000000000e+00       1.191396999244e-10       1.290421965659e-11      -1.033324793823e-14 
   34       1.527940896396e-10       4.393363871257e-15       2.624366362078e-13       0.000000000000e+00       1.123204659745e-10       1.218603909514e-11      -1.163510207001e-14 
   35       1.550795148686e-10       4.852445397661e-15       2.617405192358e-13       0.000000000000e+00       1.059968879147e-10       1.152995823313e-11      -1.226456909161e-14 
   36       1.573972136695e-10       5.341935908561e-15       2.597008435056e-13       0.000000000000e+00       1.001522986967e-10       1.093363746573e-11      -1.220344960511e-14 
   37       1.597474312146e-10       5.862799438270e-15       2.562612338188e-13       0.000000000000e+00       9.476814921551e-11       1.038997187641e-11      -1.164850857730e-14 
   38       1.621227321571e-10       6.415999334307e-15       2.513681366813e-13       0.000000000000e+00       8.978740925144e-11       9.886431653979e-12      -1.085813460506e-14 
   39       1.645125771738e-10       7.002459529859e-15       2.449803934645e-13       0.000000000000e+00       8.513507021634e-11       9.408995888625e-12      -1.010042516059e-14 
   40       1.669209215679e-10       7.622932716010e-15       2.371015244842e-13       0.000000000000e+00       8.079669239976e-11       8.956708306069e-12      -9.465366834244e-15 
   41       1.693532466633e-10       8.278087051886e-15       2.277587028241e-13       0.000000000000e+00       7.676070201565e-11       8.531299697102e-12      -8.996030883607e-15 
   42       1.718112797567e-10       8.968537906046e-15       2.169951372651e-13       0.000000000000e+00       7.299495920326e-11       8.133081810560e-12      -8.739526999229e-15 
   43       1.742942660897e-10       9.694848546468e-15       2.048462729277e-13       0.000000000000e+00       6.945859640292e-11       7.761291979757e-12      -8.727119067571e-15 
   44       1.768042321102e-10       1.045753975466e-14       1.912574611819e-13       0.000000000000e+00       6.614603521021e-11       7.415573522778e-12      -8.906855885629e-15 
   45       1.793416707087e-10       1.125707802428e-14       1.761420876648e-13       0.000000000000e+00       6.305378348563e-11       7.094730589193e-12      -9.190153295015e-15 
   46       1.819037058908e-10       1.209386930345e-14       1.594033402984e-13       0.000000000000e+00       6.016722212502e-11       6.796188563250e-12      -9.468878028432e-15 
   47       1.844837888670e-10       1.296825616131e-14       1.409335196589e-13       0.000000000000e+00       5.745973838542e-11       6.515890251972e-12      -9.614212025574e-15 
   48       1.870749117190e-10       1.388051741592e-14       1.206365790883e-13       0.000000000000e+00       5.490089050150e-11       6.249480504979e-12      -9.514148945237e-15 
   49       1.896810287455e-10       1.483087350591e-14       9.850486753254e-14       0.000000000000e+00       5.248564531367e-11       5.996497175030e-12      -9.201132468566e-15 
   50       1.923083325018e-10       1.581947776469e-14       7.456283470794e-14       0.000000000000e+00       5.021189332577e-11       5.757183177426e-12      -8.758446437817e-15 
   51       1.949618959391e-10       1.684641144991e-14       4.884617347333e-14       0.000000000000e+00       4.807174108882e-11       5.531264065176e-12      -8.285538804644e-15 
   52       1.976455479620e-10       1.791168103544e-14       2.140231539103e-14       0.000000000000e+00       4.605110530693e-11       5.317909953400e-12      -7.898856976415e-15 
   53       2.003618560369e-10       1.901527106285e-14      -7.725709176242e-15       0.000000000000e+00       4.413411577367e-11       5.116046583399e-12      -7.702982702721e-15 
   54       2.031123552169e-10       2.015732488426e-14      -3.855370392292e-14       0.000000000000e+00       4.231858769155e-11       4.925470066715e-12      -7.693399865726e-15 
   55       2.058971611241e-10       2.133800567663e-14      -7.111500707173e-14       0.000000000000e+00       4.060382053359e-11       4.745952429217e-12      -7.830180010920e-15 
   56       2.087147508005e-10       2.255744458071e-14      -1.054452784842e-13       0.000000000000e+00       3.898593779608e-11       4.576894653035e-12      -8.065093571939e-15 
   57       2.115618427543e-10       2.381574032258e-14      -1.415827016034e-13       0.000000000000e+00       3.745768273268e-11       4.417303239939e-12      -8.341199914584e-15 
   58       2.144332770067e-10       2.511295883526e-14      -1.795681853971e-13       0.000000000000e+00       3.600821408840e-11       4.265766774728e-12      -8.592437380846e-15 
   59       2.173239847904e-10       2.644902833796e-14      -2.194333985300e-13       0.000000000000e+00       3.462607889234e-11       4.120832980964e-12      -8.759280064260e-15 
   60       2.202357042404e-10       2.782339698015e-14      -2.611611682621e-13       0.000000000000e+00       3.330940094307e-11       3.982295369538e-12      -8.840885127614e-15 
   61       2.231716150575e-10       2.923529488219e-14      -3.047162255565e-13       0.000000000000e+00       3.205770158685e-11       3.850164498345e-12      -8.854352628150e-15 
   62       2.261343378670e-10       3.068382784498e-14      -3.500563580161e-13       0.000000000000e+00       3.086883609877e-11       3.724284092548e-12      -8.819855503386e-15 
   63       2.291258851007e-10       3.216797342781e-14      -3.971321993593e-13       0.000000000000e+00       2.973889711379e-11       3.604321183972e-12      -8.760774250101e-15 
   64       2.321476118789e-10       3.368657702606e-14      -4.458870188963e-13       0.000000000000e+00       2.866211805758e-11       3.489756250502e-12      -8.703831603320e-15 
   65       2.352004331643e-10       3.523848729545e-14      -4.962687490195e-13       0.000000000000e+00       2.763245680903e-11       3.380034610677e-12      -8.672950513046e-15 
   66       2.382856390028e-10       3.682300456950e-14      -5.482695011574e-13       0.000000000000e+00       2.664895342131e-11       3.275080022268e-12      -8.669013682105e-15 
   67       2.414041646441e-10       3.843952067841e-14      -6.018940670126e-13       0.000000000000e+00       2.571133779995e-11       3.174872549646e-12      -8.686045534232e-15 
   68       2.445562986131e-10       4.008738795849e-14      -6.571485483375e-13       0.000000000000e+00       2.481840095061e-11       3.079291656472e-12      -8.717070543214e-15 
   69       2.477416410406e-10       4.176591922776e-14      -7.140404887325e-13       0.000000000000e+00       2.396794540953e-11       2.988110855727e-12      -8.754072339786e-15 
   70       2.509590619931e-10       4.347438776152e-14      -7.725790054442e-13       0.000000000000e+00       2.315673567389e-11       2.900992359749e-12      -8.787952818520e-15 
   71       2.542066598033e-10       4.521202726794e-14      -8.327749211638e-13       0.000000000000e+00       2.238044863230e-11       2.817481730255e-12      -8.808491244719e-15 
   72       2.574825678518e-10       4.697797726273e-14      -8.946321259193e-13       0.000000000000e+00       2.163478101041e-11       2.737126864710e-12      -8.806720911267e-15 
   73       2.607876467967e-10       4.877110710835e-14      -9.581194502897e-13       0.000000000000e+00       2.091912796168e-11       2.659873285645e-12      -8.782678128702e-15 
   74       2.641232362194e-10       5.059015799772e-14      -1.023193606299e-12       0.000000000000e+00       2.023352428949e-11       2.585735412140e-12      -8.739073678407e-15 
   75       2.674903300420e-10       5.243379331313e-14      -1.089807411687e-12       0.000000000000e+00       1.957752723602e-11       2.514676477890e-12      -8.679021113324e-15 
   76       2.708895542287e-10       5.430059735519e-14      -1.157909721484e-12       0.000000000000e+00       1.895019332854e-11       2.446606019959e-12      -8.606051060047e-15 
   77       2.743211444866e-10       5.618907407182e-14      -1.227445359580e-12       0.000000000000e+00       1.835005522572e-11       2.381377367546e-12      -8.524125520927e-15 
   78       2.777849239671e-10       5.809764578726e-14      -1.298355050297e-12       0.000000000000e+00       1.777509856391e-11       2.318785130739e-12      -8.437652176160e-15 
   79       2.812802809673e-10       6.002465193104e-14      -1.370575349963e-12       0.000000000000e+00       1.722273880341e-11       2.258562689279e-12      -8.351498685892e-15 
   80       2.848065762904e-10       6.196841071202e-14      -1.444043633120e-12       0.000000000000e+00       1.669046045026e-11       2.200449447328e-12      -8.270024534751e-15 
   81       2.883644958563e-10       6.392741927166e-14      -1.518714198942e-12       0.000000000000e+00       1.617791350397e-11       2.144411573465e-12      -8.193951469752e-15 
   82       2.919548933868e-10       6.590018613306e-14      -1.594544850133e-12       0.000000000000e+00       1.568514052862e-11       2.090455190900e-12      -8.122973127784e-15 
   83       2.955783674890e-10       6.788517123951e-14      -1.671492111521e-12       0.000000000000e+00       1.521193589545e-11       2.038558815889e-12      -8.056685388413e-15 
   84       2.992352473132e-10       6.988078584912e-14      -1.749511255231e-12       0.000000000000e+00       1.475783489527e-11       1.988672138452e-12      -7.994582482322e-15 
   85       3.029255782108e-10       7.188539242949e-14      -1.828556325864e-12       0.000000000000e+00       1.432210285105e-11       1.940714803099e-12      -7.936053099745e-15 
   86       3.066491073922e-10       7.389730455227e-14      -1.908580165670e-12       0.000000000000e+00       1.390372423036e-11       1.894575189551e-12      -7.880376498914e-15 
   87       3.104052695846e-10       7.591478678788e-14      -1.989534439731e-12       0.000000000000e+00       1.350139175792e-11       1.850109193465e-12      -7.826718614488e-15 
   88       3.141931726901e-10       7.793605460010e-14      -2.071369661128e-12       0.000000000000e+00       1.311349552808e-11       1.807139007152e-12      -7.774128165999e-15 
   89       3.180119274203e-10       7.995929708332e-14      -2.154034123264e-12       0.000000000000e+00       1.273850482131e-11       1.765495286716e-12      -7.721686987920e-15 
   90       3.218617267239e-10       8.198274949162e-14      -2.237470449978e-12       0.000000000000e+00       1.237620592723e-11       1.725153891818e-12      -7.668996528245e-15 
   91       3.257429100499e-10       8.400463194593e-14      -2.321618548122e-12       0.000000000000e+00       1.202663933980e-11       1.686118449307e-12      -7.615760850882e-15 
   92       3.296556253840e-10       8.602312783783e-14      -2.406416660928e-12       0.000000000000e+00       1.168971940456e-11       1.648378314974e-12      -7.561637648692e-15 
   93       3.335998200593e-10       8.803638406636e-14      -2.491801376811e-12       0.000000000000e+00       1.136522931434e-11       1.611908004250e-12      -7.506236662356e-15 
   94       3.375752315673e-10       9.004251127487e-14      -2.577707638173e-12       0.000000000000e+00       1.105281610491e-11       1.576666622920e-12      -7.449118099256e-15 
   95       3.415813783696e-10       9.203958408788e-14      -2.664068750207e-12       0.000000000000e+00       1.075198565075e-11       1.542597297822e-12      -7.389791052345e-15 
   96       3.456175507084e-10       9.402564134794e-14      -2.750816389702e-12       0.000000000000e+00       1.046209766074e-11       1.509626607559e-12      -7.327711919028e-15 
   97       3.496828014180e-10       9.599868635244e-14      -2.837880613847e-12       0.000000000000e+00       1.018236067388e-11       1.477664013203e-12      -7.262282820030e-15 
   98       3.537759367354e-10       9.795668709049e-14      -2.925189869031e-12       0.000000000000e+00       9.911827054981e-12       1.446601289001e-12      -7.192850018277e-15 
   99       3.578958088291e-10       9.989762344106e-14      -3.012672310764e-12       0.000000000000e+00       9.649609277463e-12       1.416338481101e-12      -7.118913811051e-15 
  100       3.620422605228e-10       1.018196358835e-13      -3.100259957709e-12       0.000000000000e+00       9.395574543861e-12       1.386867209676e-12      -7.040795546209e-15 
  101       3.662152979361e-10       1.037208983886e-13      -3.187885145121e-12       0.000000000000e+00       9.149739713569e-12       1.358198163142e-12      -6.959062585330e-15 
  102       3.704147952429e-10       1.055995741322e-13      -3.275479290615e-12       0.000000000000e+00       8.912056500525e-12       1.330335378157e-12      -6.874326228831e-15 
  103       3.746404891396e-10       1.074538163014e-13      -3.362972918858e-12       0.000000000000e+00       8.682409151188e-12       1.303275991881e-12      -6.787242698153e-15 
  104       3.788919733141e-10       1.092817689007e-13      -3.450295686271e-12       0.000000000000e+00       8.460612122517e-12       1.277009994234e-12      -6.698514117949e-15 
  105       3.831686929130e-10       1.110815675578e-13      -3.537376405720e-12       0.000000000000e+00       8.246407759949e-12       1.251519980152e-12      -6.608889498271e-15 
  106       3.874699390110e-10       1.128513403299e-13      -3.624143071215e-12       0.000000000000e+00       8.039463975378e-12       1.226780901849e-12      -6.519165716760e-15 
  107       3.917948430781e-10       1.145892085097e-13      -3.710522882605e-12       0.000000000000e+00       7.839371925132e-12       1.202759821068e-12      -6.430188500832e-15 
