# dimensionless total lensed [l(l+1)/2pi] C_l's
# for l=2 to 2500, i.e. number of multipoles equal to 2499
#
# -> if you prefer output in CAMB/HealPix/LensPix units/order, set 'format' to 'camb' in input file
# -> if you don't want to see such a header, set 'headers' to 'no' in input file
# -> for CMB lensing (phi), these are C_l^phi-phi for the lensing potential.
#    Remember the conversion factors:
#    C_l^dd (deflection) = l(l+1) C_l^phi-phi
#    C_l^gg (shear/convergence) = 1/4 (l(l+1))^2 C_l^phi-phi
#
# 1:l     2:TT                     3:EE                     4:TE                     5:BB                     6:phiphi                 7:TPhi                   8:Ephi               
    2       1.374841259383e-10       4.157734227633e-15       3.535752771212e-13       2.285927107884e-19       8.407238225724e-09       4.505571892557e-10      -1.842175367303e-12 
    3       1.301656550049e-10       5.319267563038e-15       3.960229033672e-13       4.572723300964e-19       5.105317095163e-09       3.181306780070e-10      -1.395017180508e-12 
    4       1.232511421880e-10       4.596678759374e-15       3.699154384768e-13       7.623122422819e-19       3.524705800191e-09       2.403420951163e-10      -9.127599419853e-13 
    5       1.180769643116e-10       3.064005367848e-15       3.147611030252e-13       1.143824355891e-18       2.618840030886e-09       1.895336871813e-10      -5.071102554820e-13 
    6       1.145368885581e-10       1.712374999080e-15       2.533074014366e-13       1.601945213874e-18       2.038298964214e-09       1.539900551844e-10      -2.085431867061e-13 
    7       1.122392890935e-10       9.256051812766e-16       1.987558215475e-13       2.136833884667e-18       1.639312977357e-09       1.279303952605e-10      -1.836703444806e-14 
    8       1.109104962661e-10       5.979118316401e-16       1.568633954689e-13       2.748669546576e-18       1.351119897757e-09       1.081959413679e-10       7.845835467058e-14 
    9       1.103061431052e-10       4.805301509272e-16       1.288738484848e-13       3.437648822738e-18       1.134999875919e-09       9.290896962875e-11       1.053327994786e-13 
   10       1.101985963829e-10       4.103249664111e-16       1.134466393817e-13       4.203982929087e-18       9.681093420508e-10       8.081629362768e-11       8.815515980001e-14 
   11       1.105317565471e-10       3.462818099463e-16       1.078859427637e-13       5.047894701183e-18       8.315055471683e-10       7.184399698870e-11       5.106263707874e-14 
   12       1.111551848054e-10       3.036229634262e-16       1.091396910385e-13       5.969615567343e-18       7.263957529763e-10       6.351798280210e-11       1.157922096571e-14 
   13       1.120201287297e-10       2.928731903156e-16       1.145245592334e-13       6.969382535181e-18       6.401196716345e-10       5.676204907509e-11      -1.834475972111e-14 
   14       1.130794743138e-10       3.060191969095e-16       1.220051116979e-13       8.047435256530e-18       5.683493176828e-10       5.087753020670e-11      -3.453949490342e-14 
   15       1.143211265237e-10       3.316291272878e-16       1.302783479996e-13       9.204013231773e-18       5.079505897403e-10       4.592986183016e-11      -3.728130406615e-14 
   16       1.156708555615e-10       3.674756507573e-16       1.387115079436e-13       1.043935320905e-17       4.566050593500e-10       4.166746101093e-11      -3.056112449583e-14 
   17       1.171558176837e-10       4.190254279305e-16       1.471130853921e-13       1.175368682677e-17       4.125652147208e-10       3.794921753458e-11      -1.957597351194e-14 
   18       1.187133448757e-10       4.915438768836e-16       1.556782273387e-13       1.314723844633e-17       3.743516117809e-10       3.470854097926e-11      -9.188597427478e-15 
   19       1.203551367398e-10       5.853541661367e-16       1.646272762366e-13       1.462022385953e-17       3.413412017656e-10       3.189837891412e-11      -1.955924291177e-15 
   20       1.220742128971e-10       6.985059940075e-16       1.741293244638e-13       1.617284782102e-17       3.122751897359e-10       2.940510211914e-11       4.743659067559e-16 
   21       1.238717694778e-10       8.303408610926e-16       1.841435132047e-13       1.780530445492e-17       2.866943282828e-10       2.718250588146e-11      -1.290803533643e-15 
   22       1.257215575426e-10       9.803397736509e-16       1.944803989692e-13       1.951777472090e-17       2.639799168660e-10       2.517375786002e-11      -5.475756187356e-15 
   23       1.276300195202e-10       1.148733474399e-15       2.048025124560e-13       2.131042839698e-17       2.438265200639e-10       2.337083227155e-11      -1.034975966819e-14 
   24       1.295915588866e-10       1.335833971192e-15       2.146814792124e-13       2.318342110997e-17       2.257729040867e-10       2.175810832808e-11      -1.409386142792e-14 
   25       1.316009925487e-10       1.541898719671e-15       2.238203344131e-13       2.513689693247e-17       2.095732034923e-10       2.031392118463e-11      -1.594291098737e-14 
   26       1.336406365426e-10       1.767311376942e-15       2.319745665850e-13       2.717098634937e-17       1.949093388977e-10       1.900205592402e-11      -1.561239467916e-14 
   27       1.357200948043e-10       2.013651059013e-15       2.390767685605e-13       2.928581306098e-17       1.817046691883e-10       1.781333164076e-11      -1.360584608722e-14 
   28       1.378420599745e-10       2.283084510821e-15       2.451377006502e-13       3.148148725168e-17       1.697985583520e-10       1.673248412814e-11      -1.089553756487e-14 
   29       1.399956198097e-10       2.577815950449e-15       2.501986697598e-13       3.375810578791e-17       1.589011261026e-10       1.573346995241e-11      -8.565157938454e-15 
   30       1.421874023558e-10       2.899017215084e-15       2.543074857698e-13       3.611576435474e-17       1.489518859188e-10       1.481531084766e-11      -6.987361983231e-15 
   31       1.444191531643e-10       3.247467386368e-15       2.575374663334e-13       3.855454877972e-17       1.398766198795e-10       1.397820200651e-11      -6.330864903820e-15 
   32       1.466828478054e-10       3.623877799303e-15       2.599530522920e-13       4.107453441748e-17       1.315312988170e-10       1.321539135165e-11      -6.675659386218e-15 
   33       1.489779746845e-10       4.029121984832e-15       2.614593624791e-13       4.367579726717e-17       1.238702059304e-10       1.252032334082e-11      -7.686332563902e-15 
   34       1.512981752461e-10       4.464078027009e-15       2.618954132069e-13       4.635840623010e-17       1.168252359849e-10       1.188070014924e-11      -8.804327915302e-15 
   35       1.536321520728e-10       4.929585286570e-15       2.610947904390e-13       4.912242295152e-17       1.102912252863e-10       1.128079455087e-11      -9.466873327801e-15 
   36       1.559868239817e-10       5.426520094870e-15       2.589682214743e-13       5.196791241262e-17       1.042510608273e-10       1.071856873445e-11      -9.608395612710e-15 
   37       1.583707118028e-10       5.955739539014e-15       2.554481418734e-13       5.489493576820e-17       9.868568059641e-11       1.019368631989e-11      -9.329138755154e-15 
   38       1.607869713379e-10       6.518057245237e-15       2.504667393660e-13       5.790354749116e-17       9.353625465559e-11       9.702585057157e-12      -8.765800596370e-15 
   39       1.632345067713e-10       7.114231583747e-15       2.439705802984e-13       6.099379707790e-17       8.872536919585e-11       9.240207428497e-12      -8.075306972634e-15 
   40       1.657133566977e-10       7.744933385330e-15       2.359706517734e-13       6.416573495965e-17       8.423818929672e-11       8.806651314735e-12      -7.372907835454e-15 
   41       1.682200508640e-10       8.410761750841e-15       2.265092711042e-13       6.741940854116e-17       8.006283124908e-11       8.402271596254e-12      -6.777495231699e-15 
   42       1.707454895731e-10       9.112247763911e-15       2.156479055960e-13       7.075486072283e-17       7.616614783620e-11       8.025686685422e-12      -6.429951815215e-15 
   43       1.732793866348e-10       9.849893134802e-15       2.034406073113e-13       7.417212891088e-17       7.250596565525e-11       7.674458522965e-12      -6.450224253854e-15 
   44       1.758264918014e-10       1.062430987750e-14       1.898419111115e-13       7.767124145534e-17       6.907658827685e-11       7.347750126678e-12      -6.789563310860e-15 
   45       1.783945455894e-10       1.143611753403e-14       1.747720033103e-13       8.125222026092e-17       6.587447028810e-11       7.044237543289e-12      -7.334335877492e-15 
   46       1.809895516607e-10       1.228590316192e-14       1.581411781201e-13       8.491508179995e-17       6.288455647744e-11       6.761250279811e-12      -7.944713273059e-15 
   47       1.836155688712e-10       1.317422008697e-14       1.398491483242e-13       8.865983713833e-17       6.007938478347e-11       6.494670501616e-12      -8.453136063054e-15 
   48       1.862747077803e-10       1.410153890720e-14       1.198038626359e-13       9.248648928301e-17       5.742752906890e-11       6.240125867423e-12      -8.710107326690e-15 
   49       1.889676042316e-10       1.506808708262e-14       9.798583866016e-14       9.639502428001e-17       5.492383481970e-11       5.997200850358e-12      -8.740418973055e-15 
   50       1.916927219857e-10       1.607396198502e-14       7.440078026324e-14       1.003854176516e-16       5.256616528472e-11       5.766239347724e-12      -8.628326095747e-15 
   51       1.944459672584e-10       1.711917110624e-14       4.906195259226e-14       1.044576367475e-16       5.034639561376e-11       5.547120747055e-12      -8.474921360011e-15 
   52       1.972204912014e-10       1.820362837489e-14       2.199048798637e-14       1.086116406345e-16       4.824999232817e-11       5.339225126078e-12      -8.399014537682e-15 
   53       2.000093545533e-10       1.932723447306e-14      -6.795440651169e-15       1.128473797292e-16       4.626057002562e-11       5.141716443440e-12      -8.506637674612e-15 
   54       2.028147806816e-10       2.049015051158e-14      -3.731707232563e-14       1.171647948409e-16       4.437590511494e-11       4.954557708144e-12      -8.788330015913e-15 
   55       2.056409376469e-10       2.169258830890e-14      -6.960744581164e-14       1.215638176899e-16       4.259530697603e-11       4.777696202199e-12      -9.196973536666e-15 
   56       2.084912085330e-10       2.293473239320e-14      -1.037012448290e-13       1.260443710234e-16       4.091479409100e-11       4.610747355419e-12      -9.676429254835e-15 
   57       2.113681139348e-10       2.421673984111e-14      -1.396349589046e-13       1.306063684939e-16       3.932688220379e-11       4.452973278347e-12      -1.016110127909e-14 
   58       2.142732344464e-10       2.553874011634e-14      -1.774470442343e-13       1.352497145376e-16       3.782037247976e-11       4.303261295157e-12      -1.057550085665e-14 
   59       2.172075291354e-10       2.690072612898e-14      -2.171668127955e-13       1.399743105573e-16       3.638343035281e-11       4.160426287093e-12      -1.085235154153e-14 
   60       2.201725533755e-10       2.830219823642e-14      -2.587777212143e-13       1.447800754211e-16       3.501413813739e-11       4.024248469963e-12      -1.099280470417e-14 
   61       2.231693873418e-10       2.974243713678e-14      -3.022458256292e-13       1.496669295180e-16       3.371202300467e-11       3.894639107762e-12      -1.101946222436e-14 
   62       2.261982021114e-10       3.122060160910e-14      -3.475300871284e-13       1.546347889625e-16       3.247488352336e-11       3.771327616114e-12      -1.095925353075e-14 
   63       2.292581955747e-10       3.273572466458e-14      -3.945821505181e-13       1.596835656872e-16       3.129868936803e-11       3.653851071812e-12      -1.084362816118e-14 
   64       2.323475283460e-10       3.428670969777e-14      -4.433461230911e-13       1.648131675347e-16       3.017748102744e-11       3.541543722357e-12      -1.070874832307e-14 
   65       2.354642357638e-10       3.587245592274e-14      -4.937704778546e-13       1.700235112911e-16       2.910501199924e-11       3.433722580549e-12      -1.058748128204e-14 
   66       2.386093323339e-10       3.749227420284e-14      -5.458471901565e-13       1.753145647860e-16       2.808030487703e-11       3.330313456271e-12      -1.048297290290e-14 
   67       2.417842521315e-10       3.914555266666e-14      -5.995805185381e-13       1.806863138996e-16       2.710309614260e-11       3.231339146482e-12      -1.038980512491e-14 
   68       2.449898946291e-10       4.083163496593e-14      -6.549757273524e-13       1.861387508546e-16       2.617214692157e-11       3.136730137133e-12      -1.030166616137e-14 
   69       2.482265879108e-10       4.254982004316e-14      -7.120392046793e-13       1.916718746699e-16       2.528519143269e-11       3.046319597603e-12      -1.021131368458e-14 
   70       2.514940518868e-10       4.429936189923e-14      -7.707785802394e-13       1.972856916149e-16       2.443888543696e-11       2.959838375132e-12      -1.011053801078e-14 
   71       2.547913615078e-10       4.607946936095e-14      -8.312028433087e-13       2.029802156639e-16       2.362875468689e-11       2.876909989259e-12      -9.990125285105e-15 
   72       2.581175350703e-10       4.788926259324e-14      -8.933142674812e-13       2.087554794354e-16       2.285034461455e-11       2.797151500341e-12      -9.842505272881e-15 
   73       2.614735116140e-10       4.972763348795e-14      -9.570821284272e-13       2.146115684313e-16       2.210303943934e-11       2.720509653813e-12      -9.670364942668e-15 
   74       2.648604883754e-10       5.159335793191e-14      -1.022464130862e-12       2.205485942210e-16       2.138688639055e-11       2.646980513374e-12      -9.479629427430e-15 
   75       2.682793071968e-10       5.348513548877e-14      -1.089414086729e-12       2.265666852210e-16       2.070143570744e-11       2.576506759589e-12      -9.276947975721e-15 
   76       2.717304320116e-10       5.540158817896e-14      -1.157881846062e-12       2.326659873882e-16       2.004571651400e-11       2.508975101550e-12      -9.069718429025e-15 
   77       2.752139263308e-10       5.734125925979e-14      -1.227813227834e-12       2.388466649133e-16       1.941821269370e-11       2.444213688518e-12      -8.866111699088e-15 
   78       2.787294307284e-10       5.930261200547e-14      -1.299149950818e-12       2.451089009147e-16       1.881683876424e-11       2.381989521583e-12      -8.675096245252e-15 
   79       2.822761403274e-10       6.128402848712e-14      -1.371829564442e-12       2.514528981319e-16       1.823891575226e-11       2.322005865313e-12      -8.506462551796e-15 
   80       2.858532465186e-10       6.328386486850e-14      -1.445790568021e-12       2.578788744150e-16       1.768183596159e-11       2.263976823869e-12      -8.368527701301e-15 
   81       2.894613999909e-10       6.530063103615e-14      -1.520988944417e-12       2.643870467644e-16       1.714524330686e-11       2.207871678924e-12      -8.260736159322e-15 
   82       2.931014618694e-10       6.733284008389e-14      -1.597384384932e-12       2.709776457722e-16       1.662918936152e-11       2.153708458543e-12      -8.179812664677e-15 
   83       2.967740483468e-10       6.937895439723e-14      -1.674935382490e-12       2.776509211690e-16       1.613346690324e-11       2.101479400112e-12      -8.121949802425e-15 
   84       3.004795167666e-10       7.143738547997e-14      -1.753599258568e-12       2.844071424201e-16       1.565759854592e-11       2.051149790968e-12      -8.082789520013e-15 
   85       3.042179517058e-10       7.350649378083e-14      -1.833332190139e-12       2.912465993238e-16       1.520082537178e-11       2.002656809024e-12      -8.057404643426e-15 
   86       3.079891510576e-10       7.558458852009e-14      -1.914089236604e-12       2.981696026076e-16       1.476209556333e-11       1.955908363390e-12      -8.040280393343e-15 
   87       3.117926121139e-10       7.766992751618e-14      -1.995824366731e-12       3.051764845263e-16       1.434005303545e-11       1.910781934997e-12      -8.025295901280e-15 
   88       3.156275176488e-10       7.976071701231e-14      -2.078490485595e-12       3.122675994585e-16       1.393302606741e-11       1.867123417224e-12      -8.005705725747e-15 
   89       3.194930477035e-10       8.185513566358e-14      -2.162038112722e-12       3.194433133249e-16       1.353942510584e-11       1.824785290734e-12      -7.975588667875e-15 
   90       3.233894013321e-10       8.395141118843e-14      -2.246411120181e-12       3.267039686373e-16       1.315903246832e-11       1.783750538066e-12      -7.934494970189e-15 
   91       3.273169102390e-10       8.604775547783e-14      -2.331550372461e-12       3.340499150414e-16       1.279189494911e-11       1.744026121594e-12      -7.883497448527e-15 
   92       3.312757184329e-10       8.814234169110e-14      -2.417395022375e-12       3.414815204322e-16       1.243792749326e-11       1.705604817580e-12      -7.823792537672e-15 
   93       3.352657731887e-10       9.023330444449e-14      -2.503882517795e-12       3.489991713835e-16       1.209690795864e-11       1.668464646078e-12      -7.756703789514e-15 
   94       3.392868160100e-10       9.231873999980e-14      -2.590948608383e-12       3.566032735778e-16       1.176847187780e-11       1.632568300832e-12      -7.683685371219e-15 
   95       3.433383735913e-10       9.439670645288e-14      -2.678527352319e-12       3.642942522359e-16       1.145210721996e-11       1.597862579175e-12      -7.606325563389e-15 
   96       3.474197487800e-10       9.646522392228e-14      -2.766551123034e-12       3.720725525466e-16       1.114714915293e-11       1.564277811933e-12      -7.526350258234e-15 
   97       3.515300115389e-10       9.852227473779e-14      -2.854950615937e-12       3.799386400966e-16       1.085277480501e-11       1.531727293326e-12      -7.445626457731e-15 
   98       3.556679899083e-10       1.005658036290e-13      -2.943654855152e-12       3.878930013002e-16       1.056799802699e-11       1.500106710866e-12      -7.366165771793e-15 
   99       3.598325603329e-10       1.025937652356e-13      -3.032592566237e-12       3.959361463380e-16       1.029189524621e-11       1.469319101823e-12      -7.289720834584e-15 
  100       3.640235851008e-10       1.046042739091e-13      -3.121696501677e-12       4.040686175193e-16       1.002433085329e-11       1.439354988327e-12      -7.216501766136e-15 
  101       3.682410915131e-10       1.065954755782e-13      -3.210899743414e-12       4.122909829079e-16       9.765325307399e-12       1.410222586442e-12      -7.146283561348e-15 
  102       3.724849790237e-10       1.085655030727e-13      -3.300134414506e-12       4.206038343734e-16       9.514830804193e-12       1.381923034825e-12      -7.078795534644e-15 
  103       3.767550138309e-10       1.105124768854e-13      -3.389331702415e-12       4.290077880510e-16       9.272728838815e-12       1.354450134034e-12      -7.013719883811e-15 
  104       3.810508234675e-10       1.124345059348e-13      -3.478421882293e-12       4.375034848017e-16       9.038827768976e-12       1.327790085848e-12      -6.950690253837e-15 
  105       3.853718913923e-10       1.143296883265e-13      -3.567334340275e-12       4.460915906727e-16       8.812860377998e-12       1.301921232576e-12      -6.889290300756e-15 
  106       3.897175515807e-10       1.161961121162e-13      -3.655997596759e-12       4.547727973571e-16       8.594481437866e-12       1.276813796373e-12      -6.829052255480e-15 
  107       3.940869831158e-10       1.180318560711e-13      -3.744339329705e-12       4.635478226546e-16       8.383265272288e-12       1.252429618552e-12      -6.769455487646e-15 
